Time,Voltage,
0,-1.74
1,-2.5927
2,-2.9934
3,-3.16434
4,-3.21899
5,-3.21526
6,-3.18268
7,-3.13632
8,-3.08382
9,-3.02908
10,-2.97405
11,-2.91969
12,-2.86649
13,-2.81466
14,-2.76429
15,-2.71538
16,-2.66795
17,-2.62195
18,-2.57735
19,-2.53753
20,-2.51254
21,-2.49508
22,-2.48147
23,-2.46987
24,-2.45936
25,-2.44946
26,-2.43994
27,-2.43068
28,-2.42161
29,-2.41271
30,-2.40396
31,-2.39535
32,-2.38687
33,-2.37852
34,-2.3703
35,-2.36221
36,-2.35423
37,-2.34638
38,-2.33864
39,-2.33102
40,-2.32352
41,-2.31613
42,-2.30885
43,-2.30168
44,-2.29462
45,-2.28766
46,-2.28081
47,-2.27407
48,-2.26742
49,-2.26088
50,-2.25846
51,-2.26667
52,-2.28014
53,-2.29626
54,-2.31374
55,-2.33192
56,-2.3505
57,-2.36932
58,-2.38831
59,-2.40743
60,-2.42667
61,-2.446
62,-2.46544
63,-2.48498
64,-2.50461
65,-2.52434
66,-2.54416
67,-2.56409
68,-2.58411
69,-2.60423
70,-2.62445
71,-2.64478
72,-2.6652
73,-2.68572
74,-2.70634
75,-2.72706
76,-2.74789
77,-2.76882
78,-2.78985
79,-2.81098
80,-2.83222
81,-2.85357
82,-2.87502
83,-2.89657
84,-2.91823
85,-2.94
86,-2.96188
87,-2.98386
88,-3.00595
89,-3.02815
90,-3.05046
91,-3.07288
92,-3.09541
93,-3.11805
94,-3.1408
95,-3.16367
96,-3.18664
97,-3.20973
98,-3.23294
99,-3.25626
100,-3.27969
101,-3.30324
102,-3.3269
103,-3.35068
104,-3.37458
105,-3.3986
106,-3.42273
107,-3.44699
108,-3.47136
109,-3.49585
110,-3.52047
111,-3.5452
112,-3.57006
113,-3.59504
114,-3.62014
115,-3.64537
116,-3.67072
117,-3.69619
118,-3.72179
119,-3.74752
120,-3.77337
121,-3.79935
122,-3.82546
123,-3.8517
124,-3.87807
125,-3.90456
126,-3.93119
127,-3.95795
128,-3.98484
129,-4.01186
130,-4.03902
131,-4.06631
132,-4.09373
133,-4.12129
134,-4.14899
135,-4.17682
136,-4.20479
137,-4.23289
138,-4.26114
139,-4.28952
140,-4.31805
141,-4.34671
142,-4.37552
143,-4.40446
144,-4.43355
145,-4.46279
146,-4.48139
147,-4.4907
148,-4.49535
149,-4.49767
150,-4.49884
151,-4.49942
152,-4.49971
153,-4.49985
154,-4.49993
155,-4.49996
156,-4.49998
157,-4.49999
158,-4.5
159,-4.5
160,-4.5
161,-4.5
162,-4.5
163,-4.5
164,-4.5
165,-4.5
166,-4.5
167,-4.5
168,-4.5
169,-4.5
170,-4.5
171,-4.5
172,-4.5
173,-4.5
174,-4.5
175,-4.5
176,-4.5
177,-4.5
178,-4.5
179,-4.5
180,-4.5
181,-4.5
182,-4.5
183,-4.5
184,-4.5
185,-4.5
186,-4.5
187,-4.5
188,-4.5
189,-4.5
190,-4.5
191,-4.5
192,-4.5
193,-4.5
194,-4.5
195,-4.5
196,-4.5
197,-4.5
198,-4.5
199,-4.5
200,-4.5
201,-4.5
202,-4.5
203,-4.5
204,-4.5
205,-4.5
206,-4.5
207,-4.5
208,-4.5
209,-4.5
210,-4.5
211,-4.5
212,-4.5
213,-4.5
214,-4.5
215,-4.5
216,-4.5
217,-4.5
218,-4.5
219,-4.5
220,-4.5
221,-4.5
222,-4.5
223,-4.5
224,-4.5
225,-4.5
226,-4.5
227,-4.5
228,-4.5
229,-4.5
230,-4.5
231,-4.5
232,-4.5
233,-4.5
234,-4.5
235,-4.5
236,-4.5
237,-4.5
238,-4.5
239,-4.5
240,-4.5
241,-4.5
242,-4.5
243,-4.5
244,-4.5
245,-4.5
246,-4.5
247,-4.5
248,-4.5
249,-4.5
250,-4.5
251,-4.5
252,-4.5
253,-4.5
254,-4.5
255,-4.5
256,-4.5
257,-4.5
258,-4.5
259,-4.5
260,-4.5
261,-4.5
262,-4.5
263,-4.5
264,-4.5
265,-4.5
266,-4.5
267,-4.5
268,-4.5
269,-4.5
270,-4.5
271,-4.5
272,-4.5
273,-4.5
274,-4.5
275,-4.5
276,-4.5
277,-4.5
278,-4.5
279,-4.5
280,-4.5
281,-4.5
282,-4.5
283,-4.5
284,-4.5
285,-4.5
286,-4.5
287,-4.5
288,-4.5
289,-4.5
290,-4.5
291,-4.5
292,-4.5
293,-4.5
294,-4.5
295,-4.5
296,-4.5
297,-4.5
298,-4.5
299,-4.5
300,-4.5
301,-4.5
302,-4.5
303,-4.5
304,-4.5
305,-4.5
306,-4.5
307,-4.5
308,-4.5
309,-4.5
310,-4.5
311,-4.5
312,-4.5
313,-4.5
314,-4.5
315,-4.5
316,-4.5
317,-4.5
318,-4.5
319,-4.5
320,-4.5
321,-4.5
322,-4.5
323,-4.5
324,-4.5
325,-4.5
326,-4.5
327,-4.5
328,-4.5
329,-4.5
330,-4.5
331,-4.5
332,-4.5
333,-4.5
334,-4.5
335,-4.5
336,-4.5
337,-4.5
338,-4.5
339,-4.5
340,-4.5
341,-4.5
342,-4.5
343,-4.5
344,-4.5
345,-4.5
346,-4.5
347,-4.5
348,-4.5
349,-4.5
350,-4.5
351,-4.5
352,-4.5
353,-4.5
354,-4.5
355,-4.5
356,-4.5
357,-4.5
358,-4.5
359,-4.5
360,-4.5
361,-4.5
362,-4.5
363,-4.5
364,-4.5
365,-4.5
366,-4.5
367,-4.5
368,-4.5
369,-4.5
370,-4.5
371,-4.5
372,-4.5
373,-4.5
374,-4.5
375,-4.5
376,-4.5
377,-4.5
378,-4.5
379,-4.5
380,-4.5
381,-4.5
382,-4.5
383,-4.5
384,-4.5
385,-4.5
386,-4.5
387,-4.5
388,-4.5
389,-4.5
390,-4.5
391,-4.5
392,-4.5
393,-4.5
394,-4.5
395,-4.5
396,-4.5
397,-4.5
398,-4.5
399,-4.5
400,-4.5
401,-4.5
402,-4.5
403,-4.5
404,-4.5
405,-4.5
406,-4.5
407,-4.5
408,-4.5
409,-4.5
410,-4.5
411,-4.5
412,-4.5
413,-4.5
414,-4.5
415,-4.5
416,-4.5
417,-4.5
418,-4.5
419,-4.5
420,-4.5
421,-4.5
422,-4.5
423,-4.5
424,-4.5
425,-4.5
426,-4.5
427,-4.5
428,-4.5
429,-4.5
430,-4.5
431,-4.5
432,-4.5
433,-4.5
434,-4.5
435,-4.5
436,-4.5
437,-4.5
438,-4.5
439,-4.5
440,-4.5
441,-4.5
442,-4.5
443,-4.5
444,-4.5
445,-4.5
446,-4.5
447,-4.5
448,-4.5
449,-4.5
450,-4.5
451,-4.5
452,-4.5
453,-4.5
454,-4.5
455,-4.5
456,-4.5
457,-4.5
458,-4.5
459,-4.5
460,-4.5
461,-4.5
462,-4.5
463,-4.5
464,-4.5
465,-4.5
466,-4.5
467,-4.5
468,-4.5
469,-4.5
470,-4.5
471,-4.5
472,-4.5
473,-4.5
474,-4.5
475,-4.5
476,-4.5
477,-4.5
478,-4.5
479,-4.5
480,-4.5
481,-4.5
482,-4.5
483,-4.5
484,-4.5
485,-4.5
486,-4.5
487,-4.5
488,-4.5
489,-4.5
490,-4.5
491,-4.5
492,-4.5
493,-4.5
494,-4.5
495,-4.5
496,-4.5
497,-4.5
498,-4.5
499,-4.5
500,-4.5
501,-4.5
502,-4.5
503,-4.5
504,-4.5
505,-4.5
506,-4.5
507,-4.5
508,-4.5
509,-4.5
510,-4.5
511,-4.5
512,-4.5
513,-4.5
514,-4.5
515,-4.5
516,-4.5
517,-4.5
518,-4.5
519,-4.5
520,-4.5
521,-4.5
522,-4.5
523,-4.5
524,-4.5
525,-4.5
526,-4.5
527,-4.5
528,-4.5
529,-4.5
530,-4.5
531,-4.5
532,-4.5
533,-4.5
534,-4.5
535,-4.5
536,-4.5
537,-4.5
538,-4.5
539,-4.5
540,-4.5
541,-4.5
542,-4.5
543,-4.5
544,-4.5
545,-4.5
546,-4.5
547,-4.5
548,-4.5
549,-4.5
550,-4.5
551,-4.5
552,-4.5
553,-4.5
554,-4.5
555,-4.5
556,-4.5
557,-4.5
558,-4.5
559,-4.5
560,-4.5
561,-4.5
562,-4.5
563,-4.5
564,-4.5
565,-4.5
566,-4.5
567,-4.5
568,-4.5
569,-4.5
570,-4.5
571,-4.5
572,-4.5
573,-4.5
574,-4.5
575,-4.5
576,-4.5
577,-4.5
578,-4.5
579,-4.5
580,-4.5
581,-4.5
582,-4.5
583,-4.5
584,-4.5
585,-4.5
586,-4.5
587,-4.5
588,-4.5
589,-4.5
590,-4.5
591,-4.5
592,-4.5
593,-4.5
594,-4.5
595,-4.5
596,-4.5
597,-4.5
598,-4.5
599,-4.5
600,-4.5
601,-4.5
602,-4.5
603,-4.5
604,-4.5
605,-4.5
606,-4.5
607,-4.5
608,-4.5
609,-4.5
610,-4.5
611,-4.5
612,-4.5
613,-4.5
614,-4.5
615,-4.5
616,-4.5
617,-4.5
618,-4.5
619,-4.5
620,-4.5
621,-4.5
622,-4.5
623,-4.5
624,-4.5
625,-4.5
626,-4.5
627,-4.5
628,-4.5
629,-4.5
630,-4.5
631,-4.5
632,-4.5
633,-4.5
634,-4.5
635,-4.5
636,-4.5
637,-4.49992
638,-4.49928
639,-4.49836
640,-4.4973
641,-4.49617
642,-4.49501
643,-4.49383
644,-4.49264
645,-4.49145
646,-4.49025
647,-4.48906
648,-4.48786
649,-4.48667
650,-4.48548
651,-4.48428
652,-4.48309
653,-4.4819
654,-4.48071
655,-4.47952
656,-4.47833
657,-4.47714
658,-4.47595
659,-4.47476
660,-4.47357
661,-4.47238
662,-4.4712
663,-4.47001
664,-4.46883
665,-4.46764
666,-4.46646
667,-4.46527
668,-4.46409
669,-4.46291
670,-4.46173
671,-4.46055
672,-4.45937
673,-4.45819
674,-4.45701
675,-4.45583
676,-4.45465
677,-4.45347
678,-4.45229
679,-4.45112
680,-4.44994
681,-4.44877
682,-4.44759
683,-4.44642
684,-4.44524
685,-4.44407
686,-4.4429
687,-4.44173
688,-4.44056
689,-4.43938
690,-4.43821
691,-4.43705
692,-4.43588
693,-4.43471
694,-4.43354
695,-4.43237
696,-4.43121
697,-4.43004
698,-4.42888
699,-4.42771
700,-4.42655
701,-4.42538
702,-4.42422
703,-4.42306
704,-4.4219
705,-4.42073
706,-4.41957
707,-4.41841
708,-4.41725
709,-4.41609
710,-4.41494
711,-4.41378
712,-4.41262
713,-4.41146
714,-4.41031
715,-4.40915
716,-4.408
717,-4.40684
718,-4.40569
719,-4.40454
720,-4.40338
721,-4.40223
722,-4.40108
723,-4.39993
724,-4.39878
725,-4.39763
726,-4.39648
727,-4.39533
728,-4.39418
729,-4.39304
730,-4.39189
731,-4.39074
732,-4.3896
733,-4.38845
734,-4.38731
735,-4.38616
736,-4.38502
737,-4.38388
738,-4.38274
739,-4.38159
740,-4.38045
741,-4.37931
742,-4.37817
743,-4.37703
744,-4.37589
745,-4.37476
746,-4.37362
747,-4.37248
748,-4.37134
749,-4.37021
750,-4.36907
751,-4.36794
752,-4.3668
753,-4.36567
754,-4.36454
755,-4.3634
756,-4.36227
757,-4.36114
758,-4.36001
759,-4.35888
760,-4.35775
761,-4.35662
762,-4.35549
763,-4.35436
764,-4.35324
765,-4.35211
766,-4.35098
767,-4.34986
768,-4.34873
769,-4.34761
770,-4.34648
771,-4.34536
772,-4.34424
773,-4.34311
774,-4.34199
775,-4.34087
776,-4.33975
777,-4.33863
778,-4.33751
779,-4.33639
780,-4.33527
781,-4.33415
782,-4.33304
783,-4.33192
784,-4.3308
785,-4.32969
786,-4.32857
787,-4.32746
788,-4.32634
789,-4.32523
790,-4.32412
791,-4.323
792,-4.32189
793,-4.32078
794,-4.31967
795,-4.31856
796,-4.31745
797,-4.31634
798,-4.31523
799,-4.31413
800,-4.31302
801,-4.31191
802,-4.31081
803,-4.3097
804,-4.30859
805,-4.30749
806,-4.30639
807,-4.30528
808,-4.30418
809,-4.30308
810,-4.30197
811,-4.30087
812,-4.29977
813,-4.29867
814,-4.29757
815,-4.29647
816,-4.29538
817,-4.29428
818,-4.29318
819,-4.29208
820,-4.29099
821,-4.28989
822,-4.2888
823,-4.2877
824,-4.28661
825,-4.28551
826,-4.28442
827,-4.28333
828,-4.28224
829,-4.28114
830,-4.28005
831,-4.27896
832,-4.27787
833,-4.27678
834,-4.27569
835,-4.27461
836,-4.27352
837,-4.27243
838,-4.27135
839,-4.27026
840,-4.26917
841,-4.26809
842,-4.267
843,-4.26592
844,-4.26484
845,-4.26375
846,-4.26267
847,-4.26159
848,-4.26051
849,-4.25943
850,-4.25835
851,-4.25727
852,-4.25619
853,-4.25511
854,-4.25403
855,-4.25296
856,-4.25188
857,-4.2508
858,-4.24973
859,-4.24865
860,-4.24758
861,-4.2465
862,-4.24543
863,-4.24436
864,-4.24329
865,-4.24221
866,-4.24114
867,-4.24007
868,-4.239
869,-4.23793
870,-4.23686
871,-4.23579
872,-4.23472
873,-4.23366
874,-4.23259
875,-4.23152
876,-4.23046
877,-4.22939
878,-4.22833
879,-4.22726
880,-4.2262
881,-4.22513
882,-4.22407
883,-4.22301
884,-4.22195
885,-4.22089
886,-4.21983
887,-4.21877
888,-4.21771
889,-4.21665
890,-4.21559
891,-4.21453
892,-4.21347
893,-4.21241
894,-4.21136
895,-4.2103
896,-4.20925
897,-4.20819
898,-4.20714
899,-4.20608
900,-4.20503
901,-4.20398
902,-4.20293
903,-4.20187
904,-4.20082
905,-4.19977
906,-4.19872
907,-4.19767
908,-4.19662
909,-4.19557
910,-4.19453
911,-4.19348
912,-4.19243
913,-4.19138
914,-4.19034
915,-4.18929
916,-4.18825
917,-4.1872
918,-4.18616
919,-4.18512
920,-4.18407
921,-4.18303
922,-4.18199
923,-4.18095
924,-4.17991
925,-4.17887
926,-4.17783
927,-4.17679
928,-4.17575
929,-4.17471
930,-4.17367
931,-4.17264
932,-4.1716
933,-4.17056
934,-4.16953
935,-4.16849
936,-4.16746
937,-4.16642
938,-4.16539
939,-4.16436
940,-4.16333
941,-4.16229
942,-4.16126
943,-4.16023
944,-4.1592
945,-4.15817
946,-4.15714
947,-4.15611
948,-4.15508
949,-4.15406
950,-4.15303
951,-4.152
952,-4.15098
953,-4.14995
954,-4.14892
955,-4.1479
956,-4.14688
957,-4.14585
958,-4.14483
959,-4.14381
960,-4.14278
961,-4.14176
962,-4.14074
963,-4.13972
964,-4.1387
965,-4.13768
966,-4.13666
967,-4.13564
968,-4.13462
969,-4.13361
970,-4.13259
971,-4.13157
972,-4.13056
973,-4.12954
974,-4.12853
975,-4.12751
976,-4.1265
977,-4.12548
978,-4.12447
979,-4.12346
980,-4.12245
981,-4.12143
982,-4.12042
983,-4.11941
984,-4.1184
985,-4.11739
986,-4.11638
987,-4.11538
988,-4.11437
989,-4.11336
990,-4.11235
991,-4.11135
992,-4.11034
993,-4.10934
994,-4.10833
995,-4.10733
996,-4.10632
997,-4.10532
998,-4.10432
999,-4.10331
1000,-4.10231
1001,-4.10131
1002,-4.10031
1003,-4.09931
1004,-4.09831
1005,-4.09731
1006,-4.09631
1007,-4.09531
1008,-4.09431
1009,-4.09332
1010,-4.09232
1011,-4.09132
1012,-4.09033
1013,-4.08933
1014,-4.08834
1015,-4.08734
1016,-4.08635
1017,-4.08535
1018,-4.08436
1019,-4.08337
1020,-4.08238
1021,-4.08139
1022,-4.08039
1023,-4.0794
1024,-4.07841
1025,-4.07742
1026,-4.07644
1027,-4.07545
1028,-4.07446
1029,-4.07347
1030,-4.07248
1031,-4.0715
1032,-4.07051
1033,-4.06953
1034,-4.06854
1035,-4.06756
1036,-4.06657
1037,-4.06559
1038,-4.06461
1039,-4.06362
1040,-4.06264
1041,-4.06166
1042,-4.06068
1043,-4.0597
1044,-4.05872
1045,-4.05774
1046,-4.05676
1047,-4.05578
1048,-4.0548
1049,-4.05382
1050,-4.05285
1051,-4.05187
1052,-4.05089
1053,-4.04992
1054,-4.04894
1055,-4.04797
1056,-4.04699
1057,-4.04602
1058,-4.04505
1059,-4.04407
1060,-4.0431
1061,-4.04213
1062,-4.04116
1063,-4.04019
1064,-4.03922
1065,-4.03825
1066,-4.03728
1067,-4.03631
1068,-4.03534
1069,-4.03437
1070,-4.03341
1071,-4.03244
1072,-4.03147
1073,-4.03051
1074,-4.02954
1075,-4.02858
1076,-4.02761
1077,-4.02665
1078,-4.02568
1079,-4.02472
1080,-4.02376
1081,-4.0228
1082,-4.02183
1083,-4.02087
1084,-4.01991
1085,-4.01895
1086,-4.01799
1087,-4.01703
1088,-4.01607
1089,-4.01512
1090,-4.01416
1091,-4.0132
1092,-4.01224
1093,-4.01129
1094,-4.01033
1095,-4.00938
1096,-4.00842
1097,-4.00747
1098,-4.00651
1099,-4.00556
1100,-4.00461
1101,-4.00365
1102,-4.0027
1103,-4.00175
1104,-4.0008
1105,-3.99985
1106,-3.9989
1107,-3.99795
1108,-3.997
1109,-3.99605
1110,-3.9951
1111,-3.99415
1112,-3.99321
1113,-3.99226
1114,-3.99131
1115,-3.99037
1116,-3.98942
1117,-3.98848
1118,-3.98753
1119,-3.98659
1120,-3.98564
1121,-3.9847
1122,-3.98376
1123,-3.98282
1124,-3.98187
1125,-3.98093
1126,-3.97999
1127,-3.97905
1128,-3.97811
1129,-3.97717
1130,-3.97623
1131,-3.9753
1132,-3.97436
1133,-3.97342
1134,-3.97248
1135,-3.97155
1136,-3.97061
1137,-3.96967
1138,-3.96874
1139,-3.96781
1140,-3.96687
1141,-3.96594
1142,-3.965
1143,-3.96407
1144,-3.96314
1145,-3.96221
1146,-3.96128
1147,-3.96034
1148,-3.95941
1149,-3.95848
1150,-3.95755
1151,-3.95663
1152,-3.9557
1153,-3.95477
1154,-3.95384
1155,-3.95291
1156,-3.95199
1157,-3.95106
1158,-3.95014
1159,-3.94921
1160,-3.94829
1161,-3.94736
1162,-3.94644
1163,-3.94551
1164,-3.94459
1165,-3.94367
1166,-3.94275
1167,-3.94182
1168,-3.9409
1169,-3.93998
1170,-3.93906
1171,-3.93814
1172,-3.93722
1173,-3.9363
1174,-3.93539
1175,-3.93447
1176,-3.93355
1177,-3.93263
1178,-3.93172
1179,-3.9308
1180,-3.92988
1181,-3.92897
1182,-3.92805
1183,-3.92714
1184,-3.92623
1185,-3.92531
1186,-3.9244
1187,-3.92349
1188,-3.92258
1189,-3.92166
1190,-3.92075
1191,-3.91984
1192,-3.91893
1193,-3.91802
1194,-3.91711
1195,-3.9162
1196,-3.9153
1197,-3.91439
1198,-3.91348
1199,-3.91257
1200,-3.91167
1201,-3.91076
1202,-3.90985
1203,-3.90895
1204,-3.90805
1205,-3.90714
1206,-3.90624
1207,-3.90533
1208,-3.90443
1209,-3.90353
1210,-3.90263
1211,-3.90172
1212,-3.90082
1213,-3.89992
1214,-3.89902
1215,-3.89812
1216,-3.89722
1217,-3.89632
1218,-3.89543
1219,-3.89453
1220,-3.89363
1221,-3.89273
1222,-3.89184
1223,-3.89094
1224,-3.89004
1225,-3.88915
1226,-3.88825
1227,-3.88736
1228,-3.88647
1229,-3.88557
1230,-3.88468
1231,-3.88379
1232,-3.88289
1233,-3.882
1234,-3.88111
1235,-3.88022
1236,-3.87933
1237,-3.87844
1238,-3.87755
1239,-3.87666
1240,-3.87577
1241,-3.87489
1242,-3.874
1243,-3.87311
1244,-3.87222
1245,-3.87134
1246,-3.87045
1247,-3.86957
1248,-3.86868
1249,-3.8678
1250,-3.86691
1251,-3.86603
1252,-3.86515
1253,-3.86426
1254,-3.86338
1255,-3.8625
1256,-3.86162
1257,-3.86074
1258,-3.85985
1259,-3.85897
1260,-3.85809
1261,-3.85722
1262,-3.85634
1263,-3.85546
1264,-3.85458
1265,-3.8537
1266,-3.85283
1267,-3.85195
1268,-3.85107
1269,-3.8502
1270,-3.84932
1271,-3.84845
1272,-3.84757
1273,-3.8467
1274,-3.84582
1275,-3.84495
1276,-3.84408
1277,-3.84321
1278,-3.84233
1279,-3.84146
1280,-3.84059
1281,-3.83972
1282,-3.83885
1283,-3.83798
1284,-3.83711
1285,-3.83624
1286,-3.83538
1287,-3.83451
1288,-3.83364
1289,-3.83277
1290,-3.83191
1291,-3.83104
1292,-3.83017
1293,-3.82931
1294,-3.82844
1295,-3.82758
1296,-3.82672
1297,-3.82585
1298,-3.82499
1299,-3.82413
1300,-3.82326
1301,-3.8224
1302,-3.82154
1303,-3.82068
1304,-3.81982
1305,-3.81896
1306,-3.8181
1307,-3.81724
1308,-3.81638
1309,-3.81552
1310,-3.81466
1311,-3.81381
1312,-3.81295
1313,-3.81209
1314,-3.81124
1315,-3.81038
1316,-3.80952
1317,-3.80867
1318,-3.80781
1319,-3.80696
1320,-3.80611
1321,-3.80525
1322,-3.8044
1323,-3.80355
1324,-3.8027
1325,-3.80184
1326,-3.80099
1327,-3.80014
1328,-3.79929
1329,-3.79844
1330,-3.79759
1331,-3.79674
1332,-3.7959
1333,-3.79505
1334,-3.7942
1335,-3.79335
1336,-3.79251
1337,-3.79166
1338,-3.79081
1339,-3.78997
1340,-3.78912
1341,-3.78828
1342,-3.78743
1343,-3.78659
1344,-3.78575
1345,-3.7849
1346,-3.78406
1347,-3.78322
1348,-3.78238
1349,-3.78153
1350,-3.78069
1351,-3.77985
1352,-3.77901
1353,-3.77817
1354,-3.77733
1355,-3.77649
1356,-3.77566
1357,-3.77482
1358,-3.77398
1359,-3.77314
1360,-3.77231
1361,-3.77147
1362,-3.77063
1363,-3.7698
1364,-3.76896
1365,-3.76813
1366,-3.76729
1367,-3.76646
1368,-3.76563
1369,-3.76479
1370,-3.76396
1371,-3.76313
1372,-3.7623
1373,-3.76146
1374,-3.76063
1375,-3.7598
1376,-3.75897
1377,-3.75814
1378,-3.75731
1379,-3.75649
1380,-3.75566
1381,-3.75483
1382,-3.754
1383,-3.75317
1384,-3.75235
1385,-3.75152
1386,-3.75069
1387,-3.74987
1388,-3.74904
1389,-3.74822
1390,-3.74739
1391,-3.74657
1392,-3.74575
1393,-3.74492
1394,-3.7441
1395,-3.74328
1396,-3.74246
1397,-3.74164
1398,-3.74081
1399,-3.73999
1400,-3.73917
1401,-3.73835
1402,-3.73753
1403,-3.73672
1404,-3.7359
1405,-3.73508
1406,-3.73426
1407,-3.73344
1408,-3.73263
1409,-3.73181
1410,-3.73099
1411,-3.73018
1412,-3.72936
1413,-3.72855
1414,-3.72773
1415,-3.72692
1416,-3.72611
1417,-3.72529
1418,-3.72448
1419,-3.72367
1420,-3.72285
1421,-3.72204
1422,-3.72123
1423,-3.72042
1424,-3.71961
1425,-3.7188
1426,-3.71799
1427,-3.71718
1428,-3.71637
1429,-3.71556
1430,-3.71476
1431,-3.71395
1432,-3.71314
1433,-3.71233
1434,-3.71153
1435,-3.71072
1436,-3.70992
1437,-3.70911
1438,-3.70831
1439,-3.7075
1440,-3.7067
1441,-3.70589
1442,-3.70509
1443,-3.70429
1444,-3.70349
1445,-3.70268
1446,-3.70188
1447,-3.70108
1448,-3.70028
1449,-3.69948
1450,-3.69868
1451,-3.69788
1452,-3.69708
1453,-3.69628
1454,-3.69548
1455,-3.69469
1456,-3.69389
1457,-3.69309
1458,-3.69229
1459,-3.6915
1460,-3.6907
1461,-3.68991
1462,-3.68911
1463,-3.68832
1464,-3.68752
1465,-3.68673
1466,-3.68593
1467,-3.68514
1468,-3.68435
1469,-3.68356
1470,-3.68276
1471,-3.68197
1472,-3.68118
1473,-3.68039
1474,-3.6796
1475,-3.67881
1476,-3.67802
1477,-3.67723
1478,-3.67644
1479,-3.67565
1480,-3.67487
1481,-3.67408
1482,-3.67329
1483,-3.6725
1484,-3.67172
1485,-3.67093
1486,-3.67015
1487,-3.66936
1488,-3.66858
1489,-3.66779
1490,-3.66701
1491,-3.66622
1492,-3.66544
1493,-3.66466
1494,-3.66387
1495,-3.66309
1496,-3.66231
1497,-3.66153
1498,-3.66075
1499,-3.65997
1500,-3.65919
1501,-3.65841
1502,-3.65763
1503,-3.65685
1504,-3.65607
1505,-3.65529
1506,-3.65451
1507,-3.65374
1508,-3.65296
1509,-3.65218
1510,-3.65141
1511,-3.65063
1512,-3.64985
1513,-3.64908
1514,-3.64831
1515,-3.64753
1516,-3.64676
1517,-3.64598
1518,-3.64521
1519,-3.64444
1520,-3.64366
1521,-3.64289
1522,-3.64212
1523,-3.64135
1524,-3.64058
1525,-3.63981
1526,-3.63904
1527,-3.63827
1528,-3.6375
1529,-3.63673
1530,-3.63596
1531,-3.63519
1532,-3.63443
1533,-3.63366
1534,-3.63289
1535,-3.63212
1536,-3.63136
1537,-3.63059
1538,-3.62983
1539,-3.62906
1540,-3.6283
1541,-3.62753
1542,-3.62677
1543,-3.626
1544,-3.62524
1545,-3.62448
1546,-3.62372
1547,-3.62295
1548,-3.62219
1549,-3.62143
1550,-3.62067
1551,-3.61991
1552,-3.61915
1553,-3.61839
1554,-3.61763
1555,-3.61687
1556,-3.61611
1557,-3.61535
1558,-3.6146
1559,-3.61384
1560,-3.61308
1561,-3.61232
1562,-3.61157
1563,-3.61081
1564,-3.61006
1565,-3.6093
1566,-3.60855
1567,-3.60779
1568,-3.60704
1569,-3.60628
1570,-3.60553
1571,-3.60478
1572,-3.60402
1573,-3.60327
1574,-3.60252
1575,-3.60177
1576,-3.60102
1577,-3.60027
1578,-3.59952
1579,-3.59877
1580,-3.59802
1581,-3.59727
1582,-3.59652
1583,-3.59577
1584,-3.59502
1585,-3.59428
1586,-3.59353
1587,-3.59278
1588,-3.59203
1589,-3.59129
1590,-3.59054
1591,-3.5898
1592,-3.58905
1593,-3.58831
1594,-3.58756
1595,-3.58682
1596,-3.58607
1597,-3.58533
1598,-3.58459
1599,-3.58385
1600,-3.5831
1601,-3.58236
1602,-3.58162
1603,-3.58088
1604,-3.58014
1605,-3.5794
1606,-3.57866
1607,-3.57792
1608,-3.57718
1609,-3.57644
1610,-3.5757
1611,-3.57496
1612,-3.57423
1613,-3.57349
1614,-3.57275
1615,-3.57202
1616,-3.57128
1617,-3.57054
1618,-3.56981
1619,-3.56907
1620,-3.56834
1621,-3.5676
1622,-3.56687
1623,-3.56614
1624,-3.5654
1625,-3.56467
1626,-3.56394
1627,-3.56321
1628,-3.56247
1629,-3.56174
1630,-3.56101
1631,-3.56028
1632,-3.55955
1633,-3.55882
1634,-3.55809
1635,-3.55736
1636,-3.55663
1637,-3.5559
1638,-3.55518
1639,-3.55445
1640,-3.55372
1641,-3.55299
1642,-3.55227
1643,-3.55154
1644,-3.55081
1645,-3.55009
1646,-3.54936
1647,-3.54864
1648,-3.54791
1649,-3.54719
1650,-3.54647
1651,-3.54574
