Time,Voltage,
0,-3.7449
1,-5.0983
2,-5.74924
3,-6.04587
4,-6.16413
5,-6.19289
6,-6.17705
7,-6.13929
8,-6.09105
9,-6.0381
10,-5.98336
11,-5.92827
12,-5.87357
13,-5.8196
14,-5.76653
15,-5.71444
16,-5.66335
17,-5.61327
18,-5.56419
19,-5.51609
20,-5.46897
21,-5.42279
22,-5.37754
23,-5.33321
24,-5.28977
25,-5.2472
26,-5.2055
27,-5.16463
28,-5.12459
29,-5.08536
30,-5.04692
31,-5.00925
32,-4.97234
33,-4.93618
34,-4.90074
35,-4.86602
36,-4.83199
37,-4.79865
38,-4.76599
39,-4.73398
40,-4.70261
41,-4.67188
42,-4.64176
43,-4.61225
44,-4.58333
45,-4.555
46,-4.52723
47,-4.50002
48,-4.47471
49,-4.46161
50,-4.45462
51,-4.45069
52,-4.44828
53,-4.44664
54,-4.44538
55,-4.44431
56,-4.44333
57,-4.44241
58,-4.44151
59,-4.44062
60,-4.43974
61,-4.43886
62,-4.43798
63,-4.4371
64,-4.43623
65,-4.43535
66,-4.43448
67,-4.4336
68,-4.43273
69,-4.43186
70,-4.43098
71,-4.43011
72,-4.42924
73,-4.42837
74,-4.4275
75,-4.42662
76,-4.42575
77,-4.42488
78,-4.42401
79,-4.42314
80,-4.42227
81,-4.42141
82,-4.42054
83,-4.41967
84,-4.4188
85,-4.41793
86,-4.41707
87,-4.4162
88,-4.41533
89,-4.41447
90,-4.4136
91,-4.41273
92,-4.41187
93,-4.411
94,-4.41014
95,-4.40927
96,-4.40841
97,-4.40755
98,-4.40668
99,-4.40582
100,-4.40496
101,-4.4041
102,-4.40323
103,-4.40237
104,-4.40151
105,-4.40065
106,-4.39979
107,-4.39893
108,-4.39807
109,-4.39721
110,-4.39635
111,-4.39549
112,-4.39464
113,-4.39378
114,-4.39292
115,-4.39206
116,-4.39121
117,-4.39035
118,-4.38949
119,-4.38864
120,-4.38778
121,-4.38693
122,-4.38607
123,-4.38522
124,-4.38436
125,-4.38351
126,-4.38265
127,-4.3818
128,-4.38095
129,-4.3801
130,-4.37924
131,-4.37839
132,-4.37754
133,-4.37669
134,-4.37584
135,-4.37499
136,-4.37414
137,-4.37329
138,-4.37244
139,-4.37159
140,-4.37074
141,-4.36989
142,-4.36904
143,-4.3682
144,-4.36735
145,-4.3665
146,-4.36565
147,-4.36481
148,-4.36396
149,-4.36312
150,-4.36227
151,-4.36143
152,-4.36058
153,-4.35974
154,-4.35889
155,-4.35805
156,-4.35721
157,-4.35636
158,-4.35552
159,-4.35468
160,-4.35383
161,-4.35299
162,-4.35215
163,-4.35131
164,-4.35047
165,-4.34963
166,-4.34879
167,-4.34795
168,-4.34711
169,-4.34627
170,-4.34543
171,-4.34459
172,-4.34376
173,-4.34292
174,-4.34208
175,-4.34124
176,-4.34041
177,-4.33957
178,-4.33874
179,-4.3379
180,-4.33706
181,-4.33623
182,-4.3354
183,-4.33456
184,-4.33373
185,-4.33289
186,-4.33206
187,-4.33123
188,-4.33039
189,-4.32956
190,-4.32873
191,-4.3279
192,-4.32707
193,-4.32624
194,-4.32541
195,-4.32457
196,-4.32374
197,-4.32292
198,-4.32209
199,-4.32126
200,-4.32043
201,-4.3196
202,-4.31877
203,-4.31794
204,-4.31712
205,-4.31629
206,-4.31546
207,-4.31464
208,-4.31381
209,-4.31299
210,-4.31216
211,-4.31133
212,-4.31051
213,-4.30969
214,-4.30886
215,-4.30804
216,-4.30721
217,-4.30639
218,-4.30557
219,-4.30475
220,-4.30392
221,-4.3031
222,-4.30228
223,-4.30146
224,-4.30064
225,-4.29982
226,-4.299
227,-4.29818
228,-4.29736
229,-4.29654
230,-4.29572
231,-4.2949
232,-4.29409
233,-4.29327
234,-4.29245
235,-4.29163
236,-4.29082
237,-4.29
238,-4.28918
239,-4.28837
240,-4.28755
241,-4.28674
242,-4.28592
243,-4.28511
244,-4.28429
245,-4.28348
246,-4.28267
247,-4.28185
248,-4.28104
249,-4.28023
250,-4.27941
251,-4.2786
252,-4.27779
253,-4.27698
254,-4.27617
255,-4.27536
256,-4.27455
257,-4.27374
258,-4.27293
259,-4.27212
260,-4.27131
261,-4.2705
262,-4.26969
263,-4.26888
264,-4.26808
265,-4.26727
266,-4.26646
267,-4.26566
268,-4.26485
269,-4.26404
270,-4.26324
271,-4.26243
272,-4.26163
273,-4.26082
274,-4.26002
275,-4.25921
276,-4.25841
277,-4.25761
278,-4.2568
279,-4.256
280,-4.2552
281,-4.2544
282,-4.25359
283,-4.25279
284,-4.25199
285,-4.25119
286,-4.25039
287,-4.24959
288,-4.24879
289,-4.24799
290,-4.24719
291,-4.24639
292,-4.24559
293,-4.24479
294,-4.244
295,-4.2432
296,-4.2424
297,-4.2416
298,-4.24081
299,-4.24001
300,-4.23921
301,-4.23842
302,-4.23762
303,-4.23683
304,-4.23603
305,-4.23524
306,-4.23444
307,-4.23365
308,-4.23286
309,-4.23206
310,-4.23127
311,-4.23048
312,-4.22968
313,-4.22889
314,-4.2281
315,-4.22731
316,-4.22652
317,-4.22573
318,-4.22494
319,-4.22415
320,-4.22336
321,-4.22257
322,-4.22178
323,-4.22099
324,-4.2202
325,-4.21941
326,-4.21862
327,-4.21784
328,-4.21705
329,-4.21626
330,-4.21548
331,-4.21469
332,-4.2139
333,-4.21312
334,-4.21233
335,-4.21155
336,-4.21076
337,-4.20998
338,-4.20919
339,-4.20841
340,-4.20763
341,-4.20684
342,-4.20606
343,-4.20528
344,-4.2045
345,-4.20371
346,-4.20293
347,-4.20215
348,-4.20137
349,-4.20059
350,-4.19981
351,-4.19903
352,-4.19825
353,-4.19747
354,-4.19669
355,-4.19591
356,-4.19513
357,-4.19436
358,-4.19358
359,-4.1928
360,-4.19202
361,-4.19125
362,-4.19047
363,-4.18969
364,-4.18892
365,-4.18814
366,-4.18737
367,-4.18659
368,-4.18582
369,-4.18504
370,-4.18427
371,-4.18349
372,-4.18272
373,-4.18195
374,-4.18117
375,-4.1804
376,-4.17963
377,-4.17886
378,-4.17808
379,-4.17731
380,-4.17654
381,-4.17577
382,-4.175
383,-4.17423
384,-4.17346
385,-4.17269
386,-4.17192
387,-4.17115
388,-4.17038
389,-4.16962
390,-4.16885
391,-4.16808
392,-4.16731
393,-4.16655
394,-4.16578
395,-4.16501
396,-4.16425
397,-4.16348
398,-4.16272
399,-4.16195
400,-4.16118
401,-4.16042
402,-4.15966
403,-4.15889
404,-4.15813
405,-4.15736
406,-4.1566
407,-4.15584
408,-4.15508
409,-4.15431
410,-4.15355
411,-4.15279
412,-4.15203
413,-4.15127
414,-4.15051
415,-4.14975
416,-4.14899
417,-4.14823
418,-4.14747
419,-4.14671
420,-4.14595
421,-4.14519
422,-4.14443
423,-4.14368
424,-4.14292
425,-4.14216
426,-4.1414
427,-4.14065
428,-4.13989
429,-4.13913
430,-4.13838
431,-4.13762
432,-4.13687
433,-4.13611
434,-4.13536
435,-4.1346
436,-4.13385
437,-4.1331
438,-4.13234
439,-4.13159
440,-4.13084
441,-4.13008
442,-4.12933
443,-4.12858
444,-4.12783
445,-4.12708
446,-4.12633
447,-4.12558
448,-4.12483
449,-4.12408
450,-4.12333
451,-4.12258
452,-4.12183
453,-4.12108
454,-4.12033
455,-4.11958
456,-4.11883
457,-4.11809
458,-4.11734
459,-4.11659
460,-4.11584
461,-4.1151
462,-4.11435
463,-4.11361
464,-4.11286
465,-4.11212
466,-4.11137
467,-4.11063
468,-4.10988
469,-4.10914
470,-4.10839
471,-4.10765
472,-4.10691
473,-4.10616
474,-4.10542
475,-4.10468
476,-4.10394
477,-4.10319
478,-4.10245
479,-4.10171
480,-4.10097
481,-4.10023
482,-4.09949
483,-4.09875
484,-4.09801
485,-4.09727
486,-4.09653
487,-4.09579
488,-4.09506
489,-4.09432
490,-4.09358
491,-4.09284
492,-4.0921
493,-4.09137
494,-4.09063
495,-4.08989
496,-4.08916
497,-4.08842
498,-4.08769
499,-4.08695
500,-4.08622
501,-4.08548
502,-4.08475
503,-4.08401
504,-4.08328
505,-4.08255
506,-4.08181
507,-4.08108
508,-4.08035
509,-4.07962
510,-4.07888
511,-4.07815
512,-4.07742
513,-4.07669
514,-4.07596
515,-4.07523
516,-4.0745
517,-4.07377
518,-4.07304
519,-4.07231
520,-4.07158
521,-4.07085
522,-4.07012
523,-4.06939
524,-4.06867
525,-4.06794
526,-4.06721
527,-4.06648
528,-4.06576
529,-4.06503
530,-4.06431
531,-4.06358
532,-4.06285
533,-4.06213
534,-4.0614
535,-4.06068
536,-4.05995
537,-4.05923
538,-4.05851
539,-4.05778
540,-4.05706
541,-4.05634
542,-4.05561
543,-4.05489
544,-4.05417
545,-4.05345
546,-4.05273
547,-4.052
548,-4.05128
549,-4.05056
550,-4.04984
551,-4.04912
552,-4.0484
553,-4.04768
554,-4.04696
555,-4.04625
556,-4.04553
557,-4.04481
558,-4.04409
559,-4.04337
560,-4.04266
561,-4.04194
562,-4.04122
563,-4.0405
564,-4.03979
565,-4.03907
566,-4.03836
567,-4.03764
568,-4.03693
569,-4.03621
570,-4.0355
571,-4.03478
572,-4.03407
573,-4.03335
574,-4.03264
575,-4.03193
576,-4.03121
577,-4.0305
578,-4.02979
579,-4.02908
580,-4.02837
581,-4.02765
582,-4.02694
583,-4.02623
584,-4.02552
585,-4.02481
586,-4.0241
587,-4.02339
588,-4.02268
589,-4.02197
590,-4.02126
591,-4.02055
592,-4.01985
593,-4.01914
594,-4.01843
595,-4.01772
596,-4.01702
597,-4.01631
598,-4.0156
599,-4.0149
600,-4.01419
601,-4.01348
602,-4.01278
603,-4.01207
604,-4.01137
605,-4.01066
606,-4.00996
607,-4.00925
608,-4.00855
609,-4.00785
610,-4.00714
611,-4.00644
612,-4.00574
613,-4.00504
614,-4.00433
615,-4.00363
616,-4.00293
617,-4.00223
618,-4.00153
619,-4.00083
620,-4.00013
621,-3.99943
622,-3.99873
623,-3.99803
624,-3.99733
625,-3.99663
626,-3.99593
627,-3.99523
628,-3.99453
629,-3.99384
630,-3.99314
631,-3.99244
632,-3.99174
633,-3.99105
634,-3.99035
635,-3.98965
636,-3.98896
637,-3.98826
638,-3.98757
639,-3.98687
640,-3.98618
641,-3.98548
642,-3.98479
643,-3.98409
644,-3.9834
645,-3.98271
646,-3.98201
647,-3.98132
648,-3.98063
649,-3.97993
650,-3.97924
651,-3.97855
652,-3.97786
653,-3.97717
654,-3.97648
655,-3.97579
656,-3.9751
657,-3.97441
658,-3.97372
659,-3.97303
660,-3.97234
661,-3.97165
662,-3.97096
663,-3.97027
664,-3.96958
665,-3.96889
666,-3.96821
667,-3.96752
668,-3.96683
669,-3.96614
670,-3.96546
671,-3.96477
672,-3.96409
673,-3.9634
674,-3.96271
675,-3.96203
676,-3.96134
677,-3.96066
678,-3.95998
679,-3.95929
680,-3.95861
681,-3.95792
682,-3.95724
683,-3.95656
684,-3.95587
685,-3.95519
686,-3.95451
687,-3.95383
688,-3.95315
689,-3.95246
690,-3.95178
691,-3.9511
692,-3.95042
693,-3.94974
694,-3.94906
695,-3.94838
696,-3.9477
697,-3.94702
698,-3.94634
699,-3.94567
700,-3.94499
701,-3.94431
702,-3.94363
703,-3.94295
704,-3.94228
705,-3.9416
706,-3.94092
707,-3.94025
708,-3.93957
709,-3.93889
710,-3.93822
711,-3.93754
712,-3.93687
713,-3.93619
714,-3.93552
715,-3.93484
716,-3.93417
717,-3.9335
718,-3.93282
719,-3.93215
720,-3.93148
721,-3.9308
722,-3.93013
723,-3.92946
724,-3.92879
725,-3.92812
726,-3.92744
727,-3.92677
728,-3.9261
729,-3.92543
730,-3.92476
731,-3.92409
732,-3.92342
733,-3.92275
734,-3.92208
735,-3.92141
736,-3.92074
737,-3.92008
738,-3.91941
739,-3.91874
740,-3.91807
741,-3.91741
742,-3.91674
743,-3.91607
744,-3.91541
745,-3.91474
746,-3.91407
747,-3.91341
748,-3.91274
749,-3.91208
750,-3.91141
751,-3.91075
752,-3.91008
753,-3.90942
754,-3.90875
755,-3.90809
756,-3.90743
757,-3.90676
758,-3.9061
759,-3.90544
760,-3.90478
761,-3.90411
762,-3.90345
763,-3.90279
764,-3.90213
765,-3.90147
766,-3.90081
767,-3.90015
768,-3.89949
769,-3.89883
770,-3.89817
771,-3.89751
772,-3.89685
773,-3.89619
774,-3.89553
775,-3.89487
776,-3.89422
777,-3.89356
778,-3.8929
779,-3.89224
780,-3.89159
781,-3.89093
782,-3.89027
783,-3.88962
784,-3.88896
785,-3.8883
786,-3.88765
787,-3.88699
788,-3.88634
789,-3.88568
790,-3.88503
791,-3.88438
792,-3.88372
793,-3.88307
794,-3.88241
795,-3.88176
796,-3.88111
797,-3.88046
798,-3.8798
799,-3.87915
800,-3.8785
801,-3.87785
802,-3.8772
803,-3.87655
804,-3.8759
805,-3.87525
806,-3.87459
807,-3.87394
808,-3.8733
809,-3.87265
810,-3.872
811,-3.87135
812,-3.8707
813,-3.87005
814,-3.8694
815,-3.86875
816,-3.86811
817,-3.86746
818,-3.86681
819,-3.86617
820,-3.86552
821,-3.86487
822,-3.86423
823,-3.86358
824,-3.86294
825,-3.86229
826,-3.86164
827,-3.861
828,-3.86036
829,-3.85971
830,-3.85907
831,-3.85842
832,-3.85778
833,-3.85714
834,-3.85649
835,-3.85585
836,-3.85521
837,-3.85457
838,-3.85392
839,-3.85328
840,-3.85264
841,-3.852
842,-3.85136
843,-3.85072
844,-3.85008
845,-3.84944
846,-3.8488
847,-3.84816
848,-3.84752
849,-3.84688
850,-3.84624
851,-3.8456
852,-3.84496
853,-3.84433
854,-3.84369
855,-3.84305
856,-3.84241
857,-3.84178
858,-3.84114
859,-3.8405
860,-3.83987
861,-3.83923
862,-3.83859
863,-3.83796
864,-3.83732
865,-3.83669
866,-3.83605
867,-3.83542
868,-3.83478
869,-3.83415
870,-3.83352
871,-3.83288
872,-3.83225
873,-3.83162
874,-3.83098
875,-3.83035
876,-3.82972
877,-3.82909
878,-3.82846
879,-3.82782
880,-3.82719
881,-3.82656
882,-3.82593
883,-3.8253
884,-3.82467
885,-3.82404
886,-3.82341
887,-3.82278
888,-3.82215
889,-3.82152
890,-3.82089
891,-3.82027
892,-3.81964
893,-3.81901
894,-3.81838
895,-3.81775
896,-3.81713
897,-3.8165
898,-3.81587
899,-3.81525
900,-3.81462
901,-3.81399
902,-3.81337
903,-3.81274
904,-3.81212
905,-3.81149
906,-3.81087
907,-3.81024
908,-3.80962
909,-3.809
910,-3.80837
911,-3.80775
912,-3.80713
913,-3.8065
914,-3.80588
915,-3.80526
916,-3.80464
917,-3.80401
918,-3.80339
919,-3.80277
920,-3.80215
921,-3.80153
922,-3.80091
923,-3.80029
924,-3.79967
925,-3.79905
926,-3.79843
927,-3.79781
928,-3.79719
929,-3.79657
930,-3.79595
931,-3.79533
932,-3.79471
933,-3.7941
934,-3.79348
935,-3.79286
936,-3.79224
937,-3.79163
938,-3.79101
939,-3.79039
940,-3.78978
941,-3.78916
942,-3.78854
943,-3.78793
944,-3.78731
945,-3.7867
946,-3.78608
947,-3.78547
948,-3.78485
949,-3.78424
950,-3.78363
951,-3.78301
952,-3.7824
953,-3.78179
954,-3.78117
955,-3.78056
956,-3.77995
957,-3.77934
958,-3.77873
959,-3.77811
960,-3.7775
961,-3.77689
962,-3.77628
963,-3.77567
964,-3.77506
965,-3.77445
966,-3.77384
967,-3.77323
968,-3.77262
969,-3.77201
970,-3.7714
971,-3.77079
972,-3.77018
973,-3.76958
974,-3.76897
975,-3.76836
976,-3.76775
977,-3.76715
978,-3.76654
979,-3.76593
980,-3.76533
981,-3.76472
982,-3.76411
983,-3.76351
984,-3.7629
985,-3.7623
986,-3.76169
987,-3.76109
988,-3.76048
989,-3.75988
990,-3.75927
991,-3.75867
992,-3.75807
993,-3.75746
994,-3.75686
995,-3.75626
996,-3.75565
997,-3.75505
998,-3.75445
999,-3.75385
1000,-3.75325
1001,-3.75265
1002,-3.75204
1003,-3.75144
1004,-3.75084
1005,-3.75024
1006,-3.74964
1007,-3.74904
1008,-3.74844
1009,-3.74784
1010,-3.74724
1011,-3.74664
1012,-3.74605
1013,-3.74545
1014,-3.74485
1015,-3.74425
1016,-3.74365
1017,-3.74306
1018,-3.74246
1019,-3.74186
1020,-3.74126
1021,-3.74067
1022,-3.74007
1023,-3.73947
1024,-3.73888
1025,-3.73828
1026,-3.73769
1027,-3.73709
1028,-3.7365
1029,-3.7359
1030,-3.73531
1031,-3.73471
1032,-3.73412
1033,-3.73353
1034,-3.73293
1035,-3.73234
1036,-3.73175
1037,-3.73115
1038,-3.73056
1039,-3.72997
1040,-3.72938
1041,-3.72878
1042,-3.72819
1043,-3.7276
1044,-3.72701
1045,-3.72642
1046,-3.72583
1047,-3.72524
1048,-3.72465
1049,-3.72406
1050,-3.72347
1051,-3.72288
1052,-3.72229
1053,-3.7217
1054,-3.72111
1055,-3.72052
1056,-3.71994
1057,-3.71935
1058,-3.71876
1059,-3.71817
1060,-3.71758
1061,-3.717
1062,-3.71641
1063,-3.71582
1064,-3.71524
1065,-3.71465
1066,-3.71406
1067,-3.71348
1068,-3.71289
1069,-3.71231
1070,-3.71172
1071,-3.71114
1072,-3.71055
1073,-3.70997
1074,-3.70939
1075,-3.7088
1076,-3.70822
1077,-3.70763
1078,-3.70705
1079,-3.70647
1080,-3.70589
1081,-3.7053
1082,-3.70472
1083,-3.70414
1084,-3.70356
1085,-3.70298
1086,-3.70239
1087,-3.70181
1088,-3.70123
1089,-3.70065
1090,-3.70007
1091,-3.69949
1092,-3.69891
1093,-3.69833
1094,-3.69775
1095,-3.69717
1096,-3.69659
1097,-3.69602
1098,-3.69544
1099,-3.69486
1100,-3.69428
1101,-3.6937
1102,-3.69313
1103,-3.69255
1104,-3.69197
1105,-3.69139
1106,-3.69082
1107,-3.69024
1108,-3.68966
1109,-3.68909
1110,-3.68851
1111,-3.68794
1112,-3.68736
1113,-3.68679
1114,-3.68621
1115,-3.68564
1116,-3.68506
1117,-3.68449
1118,-3.68391
1119,-3.68334
1120,-3.68277
1121,-3.68219
1122,-3.68162
1123,-3.68105
1124,-3.68048
1125,-3.6799
1126,-3.67933
1127,-3.67876
1128,-3.67819
1129,-3.67762
1130,-3.67705
1131,-3.67648
1132,-3.6759
1133,-3.67533
1134,-3.67476
1135,-3.67419
1136,-3.67362
1137,-3.67305
1138,-3.67248
1139,-3.67192
1140,-3.67135
1141,-3.67078
1142,-3.67021
1143,-3.66964
1144,-3.66907
1145,-3.66851
1146,-3.66794
1147,-3.66737
1148,-3.6668
1149,-3.66624
1150,-3.66567
1151,-3.6651
1152,-3.66454
1153,-3.66397
1154,-3.66341
1155,-3.66284
1156,-3.66228
1157,-3.66171
1158,-3.66115
1159,-3.66058
1160,-3.66002
1161,-3.65945
1162,-3.65889
1163,-3.65833
1164,-3.65776
1165,-3.6572
1166,-3.65664
1167,-3.65607
1168,-3.65551
1169,-3.65495
1170,-3.65439
1171,-3.65382
1172,-3.65326
1173,-3.6527
1174,-3.65214
1175,-3.65158
1176,-3.65102
1177,-3.65046
1178,-3.6499
1179,-3.64934
1180,-3.64878
1181,-3.64822
1182,-3.64766
1183,-3.6471
1184,-3.64654
1185,-3.64598
1186,-3.64542
1187,-3.64486
1188,-3.64431
1189,-3.64375
1190,-3.64319
1191,-3.64263
1192,-3.64208
1193,-3.64152
1194,-3.64096
1195,-3.64041
1196,-3.63985
1197,-3.63929
1198,-3.63874
1199,-3.63818
1200,-3.63763
1201,-3.63707
1202,-3.63652
1203,-3.63596
1204,-3.63541
1205,-3.63485
1206,-3.6343
1207,-3.63375
1208,-3.63319
1209,-3.63264
1210,-3.63209
1211,-3.63153
1212,-3.63098
1213,-3.63043
1214,-3.62988
1215,-3.62932
1216,-3.62877
1217,-3.62822
1218,-3.62767
1219,-3.62712
1220,-3.62657
1221,-3.62602
1222,-3.62546
1223,-3.62491
1224,-3.62436
1225,-3.62381
1226,-3.62327
1227,-3.62272
1228,-3.62217
1229,-3.62162
1230,-3.62107
1231,-3.62052
1232,-3.61997
1233,-3.61942
1234,-3.61888
1235,-3.61833
1236,-3.61778
1237,-3.61723
1238,-3.61669
1239,-3.61614
1240,-3.61559
1241,-3.61505
1242,-3.6145
1243,-3.61395
1244,-3.61341
1245,-3.61286
1246,-3.61232
1247,-3.61177
1248,-3.61123
1249,-3.61068
1250,-3.61014
1251,-3.6096
1252,-3.60905
1253,-3.60851
1254,-3.60796
1255,-3.60742
1256,-3.60688
1257,-3.60633
1258,-3.60579
1259,-3.60525
1260,-3.60471
1261,-3.60417
1262,-3.60362
1263,-3.60308
1264,-3.60254
1265,-3.602
1266,-3.60146
1267,-3.60092
1268,-3.60038
1269,-3.59984
1270,-3.5993
1271,-3.59876
1272,-3.59822
1273,-3.59768
1274,-3.59714
1275,-3.5966
1276,-3.59606
1277,-3.59552
1278,-3.59498
1279,-3.59445
1280,-3.59391
1281,-3.59337
1282,-3.59283
1283,-3.5923
1284,-3.59176
1285,-3.59122
1286,-3.59069
1287,-3.59015
1288,-3.58961
1289,-3.58908
1290,-3.58854
1291,-3.58801
1292,-3.58747
1293,-3.58694
1294,-3.5864
1295,-3.58587
1296,-3.58533
1297,-3.5848
1298,-3.58426
1299,-3.58373
1300,-3.5832
1301,-3.58266
1302,-3.58213
1303,-3.5816
1304,-3.58106
1305,-3.58053
1306,-3.58
1307,-3.57947
1308,-3.57894
1309,-3.5784
1310,-3.57787
1311,-3.57734
1312,-3.57681
1313,-3.57628
1314,-3.57575
1315,-3.57522
1316,-3.57469
1317,-3.57416
1318,-3.57363
1319,-3.5731
1320,-3.57257
1321,-3.57204
1322,-3.57151
1323,-3.57098
1324,-3.57045
1325,-3.56993
1326,-3.5694
1327,-3.56887
1328,-3.56834
1329,-3.56781
1330,-3.56729
1331,-3.56676
1332,-3.56623
1333,-3.56571
1334,-3.56518
1335,-3.56465
1336,-3.56413
1337,-3.5636
1338,-3.56308
1339,-3.56255
1340,-3.56203
1341,-3.5615
1342,-3.56098
1343,-3.56045
1344,-3.55993
1345,-3.5594
1346,-3.55888
1347,-3.55836
1348,-3.55783
1349,-3.55731
1350,-3.55679
1351,-3.55626
1352,-3.55574
1353,-3.55522
1354,-3.5547
1355,-3.55417
1356,-3.55365
1357,-3.55313
1358,-3.55261
1359,-3.55209
1360,-3.55157
1361,-3.55105
1362,-3.55053
1363,-3.55001
1364,-3.54949
1365,-3.54897
1366,-3.54845
1367,-3.54793
1368,-3.54741
1369,-3.54689
1370,-3.54637
1371,-3.54585
1372,-3.54533
1373,-3.54481
1374,-3.5443
1375,-3.54378
1376,-3.54326
1377,-3.54274
1378,-3.54223
1379,-3.54171
1380,-3.54119
1381,-3.54068
1382,-3.54016
1383,-3.53964
1384,-3.53913
1385,-3.53861
1386,-3.5381
1387,-3.53758
1388,-3.53707
1389,-3.53655
1390,-3.53604
1391,-3.53552
1392,-3.53501
1393,-3.53449
1394,-3.53398
1395,-3.53347
1396,-3.53295
1397,-3.53244
1398,-3.53193
1399,-3.53141
1400,-3.5309
1401,-3.53039
1402,-3.52988
1403,-3.52936
1404,-3.52885
1405,-3.52834
1406,-3.52783
1407,-3.52732
1408,-3.52681
1409,-3.5263
1410,-3.52579
1411,-3.52527
1412,-3.52476
1413,-3.52425
1414,-3.52374
1415,-3.52323
1416,-3.52273
1417,-3.52222
1418,-3.52171
1419,-3.5212
1420,-3.52069
1421,-3.52018
1422,-3.51967
1423,-3.51917
1424,-3.51866
1425,-3.51815
1426,-3.51764
1427,-3.51714
1428,-3.51663
1429,-3.51612
1430,-3.51562
1431,-3.51511
1432,-3.5146
1433,-3.5141
1434,-3.51359
1435,-3.51309
1436,-3.51258
1437,-3.51208
1438,-3.51157
1439,-3.51107
1440,-3.51056
1441,-3.51006
1442,-3.50955
1443,-3.50905
1444,-3.50854
1445,-3.50804
1446,-3.50754
1447,-3.50704
1448,-3.50653
1449,-3.50603
1450,-3.50553
1451,-3.50502
1452,-3.50452
1453,-3.50402
1454,-3.50352
1455,-3.50302
1456,-3.50252
1457,-3.50201
1458,-3.50151
1459,-3.50101
1460,-3.50051
1461,-3.50001
1462,-3.49951
1463,-3.49901
1464,-3.49851
1465,-3.49801
1466,-3.49751
1467,-3.49701
1468,-3.49652
1469,-3.49602
1470,-3.49552
1471,-3.49502
1472,-3.49452
1473,-3.49402
1474,-3.49353
1475,-3.49303
1476,-3.49253
1477,-3.49203
1478,-3.49154
1479,-3.49104
1480,-3.49054
1481,-3.49005
1482,-3.48955
1483,-3.48906
1484,-3.48856
1485,-3.48807
1486,-3.48757
1487,-3.48707
1488,-3.48658
1489,-3.48608
1490,-3.48559
1491,-3.4851
1492,-3.4846
1493,-3.48411
1494,-3.48361
1495,-3.48312
1496,-3.48263
1497,-3.48213
1498,-3.48164
1499,-3.48115
1500,-3.48066
1501,-3.48016
1502,-3.47967
1503,-3.47918
1504,-3.47869
1505,-3.4782
1506,-3.4777
1507,-3.47721
1508,-3.47672
1509,-3.47623
1510,-3.47574
1511,-3.47525
1512,-3.47476
1513,-3.47427
1514,-3.47378
1515,-3.47329
1516,-3.4728
1517,-3.47231
